t,phi,z,omega,vz,E,E_anal
0.000000,1.100000,1.000000,0.000000,0.000000,2.569827,2.569827
0.010000,1.099298,0.999901,-0.140450,-0.019769,2.569827,2.569827
0.020000,1.097191,0.999605,-0.280938,-0.039402,2.569827,2.569827
0.030000,1.093679,0.999114,-0.421500,-0.058763,2.569827,2.569827
0.040000,1.088761,0.998431,-0.562166,-0.077716,2.569827,2.569827
0.050000,1.082435,0.997561,-0.702958,-0.096127,2.569827,2.569827
0.060000,1.074701,0.996511,-0.843891,-0.113860,2.569827,2.569827
0.070000,1.065557,0.995287,-0.984965,-0.130780,2.569827,2.569827
0.080000,1.055001,0.993898,-1.126164,-0.146756,2.569827,2.569827
0.090000,1.043033,0.992355,-1.267458,-0.161654,2.569827,2.569827
0.100000,1.029652,0.990669,-1.408792,-0.175345,2.569827,2.569827
0.110000,1.014857,0.988853,-1.550091,-0.187700,2.569827,2.569827
0.120000,0.998651,0.986920,-1.691253,-0.198593,2.569827,2.569827
0.130000,0.981033,0.984886,-1.832149,-0.207902,2.569827,2.569827
0.140000,0.962009,0.982768,-1.972618,-0.215509,2.569827,2.569827
0.150000,0.941583,0.980582,-2.112468,-0.221301,2.569827,2.569827
0.160000,0.919762,0.978348,-2.251469,-0.225168,2.569827,2.569827
0.170000,0.896557,0.976086,-2.389359,-0.227012,2.569827,2.569827
0.180000,0.871980,0.973815,-2.525833,-0.226739,2.569827,2.569827
0.190000,0.846046,0.971558,-2.660551,-0.224265,2.569827,2.569827
0.200000,0.818776,0.969337,-2.793135,-0.219519,2.569827,2.569827
0.210000,0.790192,0.967176,-2.923165,-0.212439,2.569827,2.569827
0.220000,0.760323,0.965097,-3.050189,-0.202979,2.569827,2.569827
0.230000,0.729200,0.963124,-3.173719,-0.191105,2.569827,2.569827
0.240000,0.696862,0.961283,-3.293235,-0.176802,2.569827,2.569827
0.250000,0.663351,0.959596,-3.408194,-0.160072,2.569827,2.569827
0.260000,0.628715,0.958089,-3.518030,-0.140935,2.569827,2.569827
0.270000,0.593009,0.956785,-3.622165,-0.119431,2.569827,2.569827
0.280000,0.556293,0.955708,-3.720015,-0.095621,2.569827,2.569827
0.290000,0.518632,0.954880,-3.811000,-0.069587,2.569827,2.569827
0.300000,0.480097,0.954324,-3.894551,-0.041433,2.569827,2.569827
0.310000,0.440767,0.954058,-3.970123,-0.011282,2.569827,2.569827
0.320000,0.400723,0.954104,-4.037205,0.020720,2.569827,2.569827
0.330000,0.360053,0.954478,-4.095328,0.054408,2.569827,2.569827
0.340000,0.318848,0.955197,-4.144079,0.089600,2.569827,2.569827
0.350000,0.277204,0.956275,-4.183107,0.126097,2.569827,2.569827
0.360000,0.235219,0.957723,-4.212132,0.163684,2.569827,2.569827
0.370000,0.192995,0.959551,-4.230954,0.202137,2.569827,2.569827
0.380000,0.150634,0.961768,-4.239455,0.241222,2.569827,2.569827
0.390000,0.108241,0.964377,-4.237604,0.280699,2.569827,2.569827
0.400000,0.065917,0.967382,-4.225457,0.320325,2.569827,2.569827
0.410000,0.023765,0.970783,-4.203160,0.359861,2.569827,2.569827
0.420000,-0.018113,0.974578,-4.170939,0.399067,2.569827,2.569827
0.430000,-0.059621,0.978763,-4.129101,0.437713,2.569827,2.569827
0.440000,-0.100665,0.983330,-4.078026,0.475578,2.569827,2.569827
0.450000,-0.141153,0.988271,-4.018156,0.512453,2.569827,2.569827
0.460000,-0.181000,0.993575,-3.949991,0.548146,2.569827,2.569827
0.470000,-0.220127,0.999229,-3.874074,0.582477,2.569827,2.569827
0.480000,-0.258458,1.005219,-3.790984,0.615288,2.569827,2.569827
0.490000,-0.295924,1.011530,-3.701323,0.646438,2.569827,2.569827
0.500000,-0.332464,1.018142,-3.605710,0.675806,2.569827,2.569827
0.510000,-0.368021,1.025039,-3.504765,0.703291,2.569827,2.569827
0.520000,-0.402544,1.032202,-3.399107,0.728811,2.569827,2.569827
0.530000,-0.435989,1.039609,-3.289342,0.752306,2.569827,2.569827
0.540000,-0.468319,1.047241,-3.176056,0.773732,2.569827,2.569827
0.550000,-0.499501,1.055076,-3.059813,0.793062,2.569827,2.569827
0.560000,-0.529507,1.063095,-2.941146,0.810290,2.569827,2.569827
0.570000,-0.558317,1.071275,-2.820555,0.825421,2.569827,2.569827
0.580000,-0.585913,1.079596,-2.698506,0.838476,2.569827,2.569827
0.590000,-0.612284,1.088038,-2.575428,0.849491,2.569827,2.569827
0.600000,-0.637420,1.096580,-2.451713,0.858509,2.569827,2.569827
0.610000,-0.661317,1.105202,-2.327714,0.865586,2.569827,2.569827
0.620000,-0.683974,1.113885,-2.203748,0.870787,2.569827,2.569827
0.630000,-0.705393,1.122611,-2.080098,0.874184,2.569827,2.569827
0.640000,-0.725578,1.131363,-1.957012,0.875855,2.569827,2.569827
0.650000,-0.744536,1.140123,-1.834706,0.875884,2.569827,2.569827
0.660000,-0.762275,1.148876,-1.713365,0.874359,2.569827,2.569827
0.670000,-0.778807,1.157605,-1.593149,0.871372,2.569827,2.569827
0.680000,-0.794143,1.166298,-1.474189,0.867016,2.569827,2.569827
0.690000,-0.808295,1.174941,-1.356596,0.861388,2.569827,2.569827
0.700000,-0.821279,1.183522,-1.240459,0.854584,2.569827,2.569827
0.710000,-0.833110,1.192030,-1.125850,0.846704,2.569827,2.569827
0.720000,-0.843802,1.200453,-1.012822,0.837843,2.569827,2.569827
0.730000,-0.853371,1.208783,-0.901416,0.828102,2.569827,2.569827
0.740000,-0.861835,1.217012,-0.791661,0.817575,2.569827,2.569827
0.750000,-0.869210,1.225133,-0.683575,0.806360,2.569827,2.569827
0.760000,-0.875513,1.233138,-0.577167,0.794552,2.569827,2.569827
0.770000,-0.880759,1.241022,-0.472440,0.782244,2.569827,2.569827
0.780000,-0.884967,1.248781,-0.369390,0.769528,2.569827,2.569827
0.790000,-0.888153,1.256412,-0.268011,0.756493,2.569827,2.569827
0.800000,-0.890333,1.263910,-0.168292,0.743229,2.569827,2.569827
0.810000,-0.891524,1.271276,-0.070220,0.729821,2.569827,2.569827
0.820000,-0.891743,1.278507,0.026216,0.716353,2.569827,2.569827
0.830000,-0.891005,1.285603,0.121029,0.702907,2.569827,2.569827
0.840000,-0.889327,1.292565,0.214233,0.689563,2.569827,2.569827
0.850000,-0.886726,1.299395,0.305837,0.676397,2.569827,2.569827
0.860000,-0.883216,1.306094,0.395850,0.663483,2.569827,2.569827
0.870000,-0.878814,1.312665,0.484277,0.650895,2.569827,2.569827
0.880000,-0.873536,1.319113,0.571121,0.638702,2.569827,2.569827
0.890000,-0.867397,1.325441,0.656380,0.626969,2.569827,2.569827
0.900000,-0.860413,1.331654,0.740049,0.615762,2.569827,2.569827
0.910000,-0.852601,1.337758,0.822119,0.605141,2.569827,2.569827
0.920000,-0.843976,1.343759,0.902574,0.595163,2.569827,2.569827
0.930000,-0.834555,1.349664,0.981397,0.585886,2.569827,2.569827
0.940000,-0.824354,1.355479,1.058564,0.577359,2.569827,2.569827
0.950000,-0.813389,1.361214,1.134047,0.569632,2.569827,2.569827
0.960000,-0.801679,1.366875,1.207812,0.562749,2.569827,2.569827
0.970000,-0.789239,1.372472,1.279822,0.556753,2.569827,2.569827
0.980000,-0.776088,1.378013,1.350034,0.551680,2.569827,2.569827
0.990000,-0.762245,1.383508,1.418402,0.547565,2.569827,2.569827
1.000000,-0.747727,1.388968,1.484874,0.544439,2.569827,2.569827
1.010000,-0.732554,1.394401,1.549397,0.542326,2.569827,2.569827
1.020000,-0.716745,1.399818,1.611912,0.541250,2.569827,2.569827
1.030000,-0.700322,1.405229,1.672358,0.541226,2.569827,2.569827
1.040000,-0.683305,1.410646,1.730672,0.542269,2.569827,2.569827
1.050000,-0.665716,1.416078,1.786787,0.544387,2.569827,2.569827
1.060000,-0.647577,1.421537,1.840638,0.547584,2.569827,2.569827
1.070000,-0.628911,1.427033,1.892155,0.551860,2.569827,2.569827
1.080000,-0.609742,1.432578,1.941271,0.557208,2.569827,2.569827
1.090000,-0.590094,1.438181,1.987918,0.563619,2.569827,2.569827
1.100000,-0.569992,1.443854,2.032030,0.571078,2.569827,2.569827
1.110000,-0.549462,1.449606,2.073542,0.579565,2.569827,2.569827
1.120000,-0.528530,1.455448,2.112393,0.589057,2.569827,2.569827
1.130000,-0.507223,1.461390,2.148524,0.599525,2.569827,2.569827
1.140000,-0.485569,1.467442,2.181880,0.610936,2.569827,2.569827
1.150000,-0.463595,1.473612,2.212413,0.623252,2.569827,2.569827
1.160000,-0.441330,1.479910,2.240078,0.636433,2.569827,2.569827
1.170000,-0.418803,1.486343,2.264836,0.650433,2.569827,2.569827
1.180000,-0.396043,1.492921,2.286657,0.665204,2.569827,2.569827
1.190000,-0.373080,1.499650,2.305516,0.680693,2.569827,2.569827
1.200000,-0.349943,1.506537,2.321397,0.696845,2.569827,2.569827
1.210000,-0.326662,1.513589,2.334289,0.713603,2.569827,2.569827
1.220000,-0.303267,1.520811,2.344194,0.730907,2.569827,2.569827
1.230000,-0.279788,1.528209,2.351119,0.748695,2.569827,2.569827
1.240000,-0.256254,1.535786,2.355081,0.766902,2.569827,2.569827
1.250000,-0.232696,1.543548,2.356103,0.785465,2.569827,2.569827
1.260000,-0.209142,1.551497,2.354222,0.804317,2.569827,2.569827
1.270000,-0.185621,1.559635,2.349477,0.823393,2.569827,2.569827
1.280000,-0.162162,1.567965,2.341920,0.842627,2.569827,2.569827
1.290000,-0.138792,1.576488,2.331609,0.861954,2.569827,2.569827
1.300000,-0.115539,1.585204,2.318609,0.881307,2.569827,2.569827
1.310000,-0.092429,1.594114,2.302993,0.900625,2.569827,2.569827
1.320000,-0.069487,1.603216,2.284840,0.919844,2.569828,2.569827
1.330000,-0.046740,1.612510,2.264235,0.938905,2.569828,2.569827
1.340000,-0.024210,1.621994,2.241268,0.957749,2.569828,2.569827
1.350000,-0.001922,1.631664,2.216035,0.976321,2.569828,2.569827
1.360000,0.020103,1.641519,2.188634,0.994566,2.569828,2.569827
1.370000,0.041844,1.651554,2.159168,1.012436,2.569828,2.569827
1.380000,0.063280,1.661766,2.127742,1.029882,2.569828,2.569827
1.390000,0.084392,1.672150,2.094463,1.046861,2.569828,2.569827
1.400000,0.105163,1.682702,2.059440,1.063332,2.569828,2.569827
1.410000,0.125576,1.693415,2.022782,1.079257,2.569828,2.569827
1.420000,0.145614,1.704285,1.984599,1.094603,2.569828,2.569827
1.430000,0.165263,1.715305,1.944999,1.109338,2.569828,2.569827
1.440000,0.184509,1.726470,1.904091,1.123437,2.569828,2.569827
1.450000,0.203341,1.737772,1.861982,1.136876,2.569828,2.569827
1.460000,0.221745,1.749205,1.818775,1.149635,2.569828,2.569827
1.470000,0.239713,1.760762,1.774573,1.161697,2.569828,2.569827
1.480000,0.257234,1.772436,1.729476,1.173049,2.569828,2.569827
1.490000,0.274300,1.784221,1.683581,1.183681,2.569828,2.569827
1.500000,0.290903,1.796108,1.636981,1.193587,2.569828,2.569827
1.510000,0.307037,1.808090,1.589767,1.202762,2.569828,2.569827
1.520000,0.322697,1.820160,1.542024,1.211206,2.569828,2.569827
1.530000,0.337876,1.832312,1.493836,1.218920,2.569828,2.569827
1.540000,0.352572,1.844536,1.445281,1.225908,2.569828,2.569827
1.550000,0.366781,1.856827,1.396434,1.232178,2.569828,2.569827
1.560000,0.380500,1.869178,1.347367,1.237738,2.569828,2.569827
1.570000,0.393728,1.881580,1.298146,1.242600,2.569828,2.569827
1.580000,0.406463,1.894027,1.248834,1.246776,2.569828,2.569827
1.590000,0.418704,1.906513,1.199492,1.250282,2.569828,2.569827
1.600000,0.430453,1.919031,1.150174,1.253134,2.569828,2.569827
1.610000,0.441708,1.931574,1.100932,1.255350,2.569828,2.569827
1.620000,0.452472,1.944136,1.051816,1.256950,2.569828,2.569827
1.630000,0.462745,1.956711,1.002870,1.257954,2.569828,2.569827
1.640000,0.472530,1.969293,0.954135,1.258385,2.569828,2.569827
1.650000,0.481829,1.981877,0.905651,1.258265,2.569828,2.569827
1.660000,0.490644,1.994457,0.857453,1.257618,2.569828,2.569827
1.670000,0.498979,2.007027,0.809574,1.256468,2.569828,2.569827
1.680000,0.506837,2.019584,0.762043,1.254841,2.569828,2.569827
1.690000,0.514221,2.032123,0.714889,1.252761,2.569828,2.569827
1.700000,0.521136,2.044638,0.668137,1.250255,2.569828,2.569827
1.710000,0.527585,2.057126,0.621810,1.247349,2.569828,2.569827
1.720000,0.533573,2.069584,0.575928,1.244070,2.569828,2.569827
1.730000,0.539105,2.082007,0.530511,1.240444,2.569828,2.569827
1.740000,0.544185,2.094392,0.485576,1.236498,2.569828,2.569827
1.750000,0.548818,2.106736,0.441139,1.232258,2.569828,2.569827
1.760000,0.553010,2.119036,0.397214,1.227752,2.569828,2.569827
1.770000,0.556764,2.131290,0.353814,1.223006,2.569828,2.569827
1.780000,0.560088,2.143495,0.310950,1.218047,2.569828,2.569827
1.790000,0.562985,2.155650,0.268634,1.212899,2.569828,2.569827
1.800000,0.565462,2.167753,0.226873,1.207590,2.569828,2.569827
1.810000,0.567525,2.179802,0.185678,1.202144,2.569828,2.569827
1.820000,0.569178,2.191795,0.145056,1.196587,2.569828,2.569827
1.830000,0.570428,2.203733,0.105014,1.190943,2.569828,2.569827
1.840000,0.571280,2.215614,0.065559,1.185237,2.569828,2.569827
1.850000,0.571741,2.227438,0.026696,1.179491,2.569828,2.569827
1.860000,0.571816,2.239204,-0.011568,1.173730,2.569828,2.569827
1.870000,0.571511,2.250912,-0.049230,1.167976,2.569828,2.569827
1.880000,0.570833,2.262563,-0.086283,1.162250,2.569828,2.569827
1.890000,0.569788,2.274157,-0.122724,1.156575,2.569828,2.569827
1.900000,0.568381,2.285695,-0.158548,1.150970,2.569828,2.569827
1.910000,0.566619,2.297177,-0.193752,1.145455,2.569828,2.569827
1.920000,0.564508,2.308605,-0.228330,1.140051,2.569828,2.569827
1.930000,0.562054,2.319979,-0.262280,1.134775,2.569828,2.569827
1.940000,0.559264,2.331301,-0.295597,1.129646,2.569828,2.569827
1.950000,0.556145,2.342572,-0.328278,1.124680,2.569828,2.569827
1.960000,0.552701,2.353795,-0.360319,1.119895,2.569828,2.569827
1.970000,0.548940,2.364971,-0.391716,1.115304,2.569828,2.569827
1.980000,0.544869,2.376102,-0.422466,1.110924,2.569828,2.569827
1.990000,0.540493,2.387190,-0.452564,1.106768,2.569828,2.569827
2.000000,0.535820,2.398238,-0.482008,1.102850,2.569828,2.569827
2.010000,0.530855,2.409248,-0.510793,1.099181,2.569828,2.569827
2.020000,0.525606,2.420222,-0.538915,1.095773,2.569828,2.569827
2.030000,0.520079,2.431164,-0.566371,1.092637,2.569828,2.569827
2.040000,0.514281,2.442076,-0.593156,1.089783,2.569828,2.569827
2.050000,0.508218,2.452961,-0.619268,1.087219,2.569828,2.569827
2.060000,0.501898,2.463821,-0.644701,1.084954,2.569828,2.569827
2.070000,0.495327,2.474661,-0.669453,1.082994,2.569828,2.569827
2.080000,0.488511,2.485482,-0.693518,1.081347,2.569828,2.569827
2.090000,0.481458,2.496289,-0.716894,1.080018,2.569828,2.569827
2.100000,0.474176,2.507084,-0.739577,1.079011,2.569828,2.569827
2.110000,0.466669,2.517870,-0.761563,1.078330,2.569828,2.569827
2.120000,0.458947,2.528651,-0.782848,1.077979,2.569828,2.569827
2.130000,0.451015,2.539431,-0.803429,1.077958,2.569828,2.569827
2.140000,0.442880,2.550212,-0.823303,1.078270,2.569828,2.569827
2.150000,0.434551,2.560997,-0.842467,1.078915,2.569828,2.569827
2.160000,0.426033,2.571791,-0.860918,1.079893,2.569828,2.569827
2.170000,0.417335,2.582596,-0.878652,1.081202,2.569828,2.569827
2.180000,0.408463,2.593416,-0.895668,1.082840,2.569828,2.569827
2.190000,0.399424,2.604254,-0.911964,1.084805,2.569828,2.569827
2.200000,0.390226,2.615113,-0.927537,1.087093,2.569828,2.569827
2.210000,0.380876,2.625997,-0.942387,1.089700,2.569828,2.569827
2.220000,0.371381,2.636908,-0.956511,1.092621,2.569828,2.569827
2.230000,0.361748,2.647850,-0.969909,1.095850,2.569828,2.569827
2.240000,0.351985,2.658826,-0.982580,1.099381,2.569828,2.569827
2.250000,0.342099,2.669839,-0.994526,1.103206,2.569828,2.569827
2.260000,0.332097,2.680891,-1.005745,1.107319,2.569828,2.569827
2.270000,0.321986,2.691986,-1.016238,1.111711,2.569828,2.569827
2.280000,0.311774,2.703127,-1.026008,1.116374,2.569828,2.569827
2.290000,0.301468,2.714315,-1.035055,1.121297,2.569828,2.569827
2.300000,0.291076,2.725553,-1.043383,1.126471,2.569828,2.569827
2.310000,0.280603,2.736845,-1.050993,1.131886,2.569828,2.569827
2.320000,0.270058,2.748192,-1.057890,1.137531,2.569828,2.569827
2.330000,0.259448,2.759596,-1.064076,1.143395,2.569828,2.569827
2.340000,0.248779,2.771060,-1.069556,1.149466,2.569828,2.569827
2.350000,0.238059,2.782586,-1.074336,1.155733,2.569828,2.569827
2.360000,0.227295,2.794176,-1.078420,1.162183,2.569828,2.569827
2.370000,0.216493,2.805830,-1.081814,1.168804,2.569828,2.569827
2.380000,0.205661,2.817552,-1.084525,1.175583,2.569828,2.569827
2.390000,0.194805,2.829343,-1.086560,1.182507,2.569828,2.569827
2.400000,0.183932,2.841203,-1.087926,1.189564,2.569828,2.569827
2.410000,0.173048,2.853134,-1.088632,1.196739,2.569828,2.569827
2.420000,0.162161,2.865138,-1.088685,1.204021,2.569828,2.569827
2.430000,0.151277,2.877215,-1.088095,1.211395,2.569828,2.569827
2.440000,0.140401,2.889366,-1.086872,1.218849,2.569828,2.569827
2.450000,0.129541,2.901592,-1.085024,1.226368,2.569828,2.569827
2.460000,0.118703,2.913894,-1.082563,1.233941,2.569828,2.569827
2.470000,0.107892,2.926271,-1.079500,1.241553,2.569828,2.569827
2.480000,0.097115,2.938725,-1.075845,1.249191,2.569828,2.569827
2.490000,0.086377,2.951255,-1.071610,1.256843,2.569828,2.569827
2.500000,0.075685,2.963862,-1.066807,1.264496,2.569828,2.569827
2.510000,0.065043,2.976545,-1.061449,1.272138,2.569828,2.569827
2.520000,0.054457,2.989304,-1.055548,1.279755,2.569828,2.569827
2.530000,0.043934,3.002140,-1.049117,1.287337,2.569828,2.569827
2.540000,0.033477,3.015051,-1.042169,1.294871,2.569828,2.569827
2.550000,0.023092,3.028037,-1.034717,1.302346,2.569828,2.569827
2.560000,0.012784,3.041098,-1.026775,1.309751,2.569828,2.569827
2.570000,0.002558,3.054232,-1.018358,1.317076,2.569828,2.569827
2.580000,-0.007582,3.067439,-1.009478,1.324308,2.569828,2.569827
2.590000,-0.017630,3.080718,-1.000151,1.331440,2.569828,2.569827
2.600000,-0.027583,3.094067,-0.990389,1.338460,2.569828,2.569827
2.610000,-0.037436,3.107486,-0.980209,1.345360,2.569828,2.569827
2.620000,-0.047186,3.120974,-0.969623,1.352132,2.569828,2.569827
2.630000,-0.056828,3.134529,-0.958647,1.358766,2.569828,2.569827
2.640000,-0.066358,3.148149,-0.947295,1.365254,2.569828,2.569827
2.650000,-0.075772,3.161833,-0.935581,1.371591,2.569828,2.569827
2.660000,-0.085068,3.175580,-0.923520,1.377767,2.569828,2.569827
2.670000,-0.094242,3.189388,-0.911125,1.383777,2.569828,2.569827
2.680000,-0.103289,3.203255,-0.898413,1.389615,2.569828,2.569827
2.690000,-0.112209,3.217180,-0.885396,1.395275,2.569828,2.569827
2.700000,-0.120996,3.231160,-0.872088,1.400751,2.569828,2.569827
2.710000,-0.129650,3.245194,-0.858504,1.406040,2.569828,2.569827
2.720000,-0.138166,3.259280,-0.844658,1.411137,2.569828,2.569827
2.730000,-0.146542,3.273416,-0.830562,1.416038,2.569828,2.569827
2.740000,-0.154776,3.287600,-0.816231,1.420740,2.569828,2.569827
2.750000,-0.162866,3.301830,-0.801678,1.425240,2.569828,2.569827
2.760000,-0.170809,3.316104,-0.786916,1.429536,2.569828,2.569827
2.770000,-0.178603,3.330420,-0.771958,1.433625,2.569828,2.569827
2.780000,-0.186248,3.344776,-0.756816,1.437506,2.569828,2.569827
2.790000,-0.193739,3.359170,-0.741503,1.441179,2.569828,2.569827
2.800000,-0.201077,3.373599,-0.726031,1.444641,2.569828,2.569827
2.810000,-0.208259,3.388062,-0.710411,1.447894,2.569828,2.569827
2.820000,-0.215285,3.402556,-0.694657,1.450936,2.569828,2.569827
2.830000,-0.222152,3.417080,-0.678778,1.453769,2.569828,2.569827
2.840000,-0.228860,3.431631,-0.662787,1.456394,2.569828,2.569827
2.850000,-0.235407,3.446207,-0.646694,1.458811,2.569828,2.569827
2.860000,-0.241794,3.460806,-0.630509,1.461022,2.569828,2.569827
2.870000,-0.248017,3.475427,-0.614244,1.463029,2.569828,2.569827
2.880000,-0.254078,3.490066,-0.597908,1.464834,2.569828,2.569827
2.890000,-0.259975,3.504723,-0.581510,1.466439,2.569828,2.569827
2.900000,-0.265708,3.519394,-0.565061,1.467848,2.569828,2.569827
2.910000,-0.271276,3.534079,-0.548570,1.469064,2.569828,2.569827
2.920000,-0.276680,3.548775,-0.532046,1.470089,2.569828,2.569827
2.930000,-0.281917,3.563480,-0.515497,1.470928,2.569828,2.569827
2.940000,-0.286989,3.578193,-0.498931,1.471584,2.569828,2.569827
2.950000,-0.291896,3.592911,-0.482358,1.472061,2.569828,2.569827
2.960000,-0.296637,3.607634,-0.465785,1.472364,2.569828,2.569827
2.970000,-0.301212,3.622358,-0.449220,1.472497,2.569828,2.569827
2.980000,-0.305621,3.637083,-0.432670,1.472464,2.569828,2.569827
2.990000,-0.309865,3.651807,-0.416142,1.472271,2.569828,2.569827
3.000000,-0.313944,3.666528,-0.399644,1.471923,2.569828,2.569827
3.010000,-0.317858,3.681245,-0.383181,1.471424,2.569828,2.569827
3.020000,-0.321608,3.695956,-0.366761,1.470781,2.569828,2.569827
3.030000,-0.325193,3.710660,-0.350390,1.469997,2.569828,2.569827
3.040000,-0.328616,3.725356,-0.334074,1.469080,2.569828,2.569827
3.050000,-0.331875,3.740041,-0.317818,1.468034,2.569828,2.569827
3.060000,-0.334972,3.754716,-0.301629,1.466865,2.569828,2.569827
3.070000,-0.337908,3.769378,-0.285511,1.465580,2.569828,2.569827
3.080000,-0.340683,3.784027,-0.269471,1.464183,2.569828,2.569827
3.090000,-0.343298,3.798661,-0.253512,1.462681,2.569828,2.569827
