t,phi,z,omega,vz,E,E_anal
0.000000,1.100000,1.000000,0.000000,0.000000,2.569827,2.569827
0.100000,1.029643,0.990672,-1.408469,-0.175393,2.569678,2.569827
0.200000,0.818741,0.969353,-2.792386,-0.219592,2.569202,2.569827
0.300000,0.480123,0.954381,-3.893589,-0.041593,2.569152,2.569827
0.400000,0.066268,0.967464,-4.225174,0.319854,2.569826,2.569827
0.500000,-0.331877,1.018147,-3.606463,0.675288,2.569317,2.569827
0.600000,-0.636959,1.096496,-2.453217,0.858280,2.569241,2.569827
0.700000,-0.821055,1.183412,-1.242274,0.854588,2.569632,2.569827
0.800000,-0.890321,1.263808,-0.170079,0.743304,2.569813,2.569827
0.900000,-0.860581,1.331566,0.738447,0.615762,2.569831,2.569827
1.000000,-0.748042,1.388882,1.483583,0.544260,2.569817,2.569827
1.100000,-0.570426,1.443755,2.031236,0.570683,2.569875,2.569827
1.200000,-0.350456,1.506403,2.321288,0.696284,2.570034,2.569827
1.300000,-0.116068,1.585016,2.319212,0.880712,2.570166,2.569827
1.400000,0.104695,1.682452,2.060564,1.062853,2.570196,2.569827
1.500000,0.290556,1.795809,1.638348,1.193304,2.570216,2.569827
1.600000,0.430251,1.918706,1.151554,1.253036,2.570270,2.569827
1.700000,0.521075,2.044307,0.669395,1.250277,2.570325,2.569827
1.800000,0.565525,2.167427,0.227946,1.207653,2.570361,2.569827
1.900000,0.568544,2.285377,-0.157687,1.151009,2.570379,2.569827
2.000000,0.536062,2.397922,-0.481369,1.102820,2.570390,2.569827
2.100000,0.474473,2.506764,-0.739170,1.078894,2.570403,2.569827
2.200000,0.390556,2.614780,-0.927363,1.086894,2.570420,2.569827
2.300000,0.291416,2.725200,-1.043434,1.126216,2.570442,2.569827
2.400000,0.184260,2.840824,-1.088178,1.189293,2.570462,2.569827
2.500000,0.075983,2.963456,-1.067220,1.264249,2.570477,2.569827
2.600000,-0.027330,3.093639,-0.990913,1.338268,2.570486,2.569827
2.700000,-0.120798,3.230714,-0.872672,1.400633,2.570493,2.569827
2.800000,-0.200937,3.373144,-0.726631,1.444598,2.570499,2.569827
2.900000,-0.265628,3.518937,-0.565642,1.467870,2.570506,2.569827
3.000000,-0.313921,3.666075,-0.400181,1.471991,2.570512,2.569827
3.100000,-0.345782,3.812835,-0.238118,1.461174,2.570518,2.569827
3.200000,-0.361848,3.957998,-0.085062,1.441038,2.570522,2.569827
3.300000,-0.363227,4.100931,0.055090,1.417511,2.570525,2.569827
3.400000,-0.351353,4.241569,0.179629,1.395987,2.570527,2.569827
3.500000,-0.327887,4.380340,0.286653,1.380746,2.570530,2.569827
3.600000,-0.294651,4.518025,0.374854,1.374621,2.570532,2.569827
3.700000,-0.253572,4.655612,0.443441,1.378865,2.570535,2.569827
3.800000,-0.206627,4.794137,0.492156,1.393219,2.570538,2.569827
3.900000,-0.155794,4.934544,0.521312,1.416140,2.570541,2.569827
4.000000,-0.102988,5.077570,0.531821,1.445155,2.570544,2.569827
4.100000,-0.050004,5.223679,0.525161,1.477288,2.570546,2.569827
4.200000,0.001536,5.373029,0.503292,1.509490,2.570548,2.569827
4.300000,0.050223,5.525487,0.468511,1.539022,2.570549,2.569827
4.400000,0.094890,5.680671,0.423299,1.563732,2.570551,2.569827
4.500000,0.134619,5.838024,0.370158,1.582220,2.570552,2.569827
4.600000,0.168737,5.996886,0.311485,1.593877,2.570553,2.569827
4.700000,0.196805,6.156575,0.249474,1.598835,2.570554,2.569827
4.800000,0.218586,6.316454,0.186073,1.597844,2.570555,2.569827
4.900000,0.234029,6.475985,0.122959,1.592111,2.570556,2.569827
5.000000,0.243235,6.634768,0.061551,1.583122,2.570556,2.569827
5.100000,0.246436,6.792555,0.003031,1.572477,2.570557,2.569827
5.200000,0.243971,6.949260,-0.051631,1.561739,2.570557,2.569827
5.300000,0.236265,7.104946,-0.101649,1.552305,2.570558,2.569827
5.400000,0.223817,7.259803,-0.146400,1.545319,2.570558,2.569827
5.500000,0.207177,7.414120,-0.185407,1.541606,2.570559,2.569827
5.600000,0.186939,7.568250,-0.218332,1.541643,2.570559,2.569827
5.700000,0.163721,7.722578,-0.244967,1.545555,2.570560,2.569827
5.800000,0.138158,7.877484,-0.265236,1.553142,2.570561,2.569827
5.900000,0.110884,8.033314,-0.279187,1.563928,2.570561,2.569827
6.000000,0.082526,8.190354,-0.286986,1.577218,2.570562,2.569827
6.100000,0.053683,8.348813,-0.288912,1.592178,2.570562,2.569827
6.200000,0.024927,8.508815,-0.285344,1.607906,2.570563,2.569827
6.300000,-0.003217,8.670390,-0.276742,1.623511,2.570563,2.569827
6.400000,-0.030271,8.833485,-0.263631,1.638172,2.570563,2.569827
6.500000,-0.055812,8.997970,-0.246582,1.651195,2.570563,2.569827
6.600000,-0.079476,9.163652,-0.226193,1.662046,2.570564,2.569827
6.700000,-0.100959,9.330295,-0.203067,1.670376,2.570564,2.569827
6.800000,-0.120018,9.497637,-0.177801,1.676021,2.570564,2.569827
6.900000,-0.136468,9.665410,-0.150972,1.679002,2.570564,2.569827
7.000000,-0.150179,9.833354,-0.123125,1.679498,2.570565,2.569827
7.100000,-0.161076,10.001237,-0.094769,1.677825,2.570565,2.569827
7.200000,-0.169131,10.168861,-0.066373,1.674403,2.570565,2.569827
7.300000,-0.174363,10.336075,-0.038361,1.669718,2.570565,2.569827
7.400000,-0.176829,10.502780,-0.011115,1.664294,2.570565,2.569827
7.500000,-0.176623,10.668927,0.015026,1.658653,2.570565,2.569827
7.600000,-0.173871,10.834520,0.039765,1.653293,2.570565,2.569827
7.700000,-0.168726,10.999610,0.062844,1.648655,2.570566,2.569827
7.800000,-0.161365,11.164288,0.084047,1.645112,2.570566,2.569827
7.900000,-0.151985,11.328678,0.103194,1.642949,2.570566,2.569827
8.000000,-0.140799,11.492930,0.120141,1.642354,2.570566,2.569827
8.100000,-0.128034,11.657205,0.134781,1.643420,2.570566,2.569827
8.200000,-0.113922,11.821669,0.147044,1.646143,2.570566,2.569827
8.300000,-0.098705,11.986485,0.156891,1.650430,2.570566,2.569827
8.400000,-0.082625,12.151802,0.164319,1.656112,2.570567,2.569827
8.500000,-0.065922,12.317747,0.169353,1.662955,2.570567,2.569827
8.600000,-0.048832,12.484422,0.172052,1.670679,2.570567,2.569827
8.700000,-0.031586,12.651901,0.172499,1.678973,2.570567,2.569827
8.800000,-0.014404,12.820225,0.170803,1.687516,2.570567,2.569827
8.900000,0.002507,12.989402,0.167094,1.695988,2.570567,2.569827
9.000000,0.018953,13.159410,0.161520,1.704090,2.570567,2.569827
9.100000,0.034754,13.330199,0.154245,1.711557,2.570567,2.569827
9.200000,0.049751,13.501693,0.145442,1.718165,2.570567,2.569827
9.300000,0.063798,13.673797,0.135294,1.723741,2.570567,2.569827
9.400000,0.076771,13.846403,0.123987,1.728167,2.570567,2.569827
9.500000,0.088563,14.019390,0.111709,1.731382,2.570567,2.569827
9.600000,0.099087,14.192638,0.098646,1.733377,2.570568,2.569827
9.700000,0.108272,14.366027,0.084982,1.734200,2.570568,2.569827
9.800000,0.116069,14.539442,0.070894,1.733942,2.570568,2.569827
9.900000,0.122443,14.712784,0.056552,1.732735,2.570568,2.569827
10.000000,0.127376,14.885963,0.042118,1.730740,2.570568,2.569827
10.100000,0.130868,15.058912,0.027746,1.728145,2.570568,2.569827
10.200000,0.132932,15.231579,0.013578,1.725146,2.570568,2.569827
10.300000,0.133595,15.403934,-0.000253,1.721950,2.570568,2.569827
10.400000,0.132897,15.575969,-0.013625,1.718757,2.570568,2.569827
10.500000,0.130889,15.747692,-0.026428,1.715756,2.570568,2.569827
10.600000,0.127634,15.919132,-0.038564,1.713120,2.570568,2.569827
10.700000,0.123202,16.090333,-0.049942,1.710997,2.570568,2.569827
10.800000,0.117673,16.261353,-0.060487,1.709509,2.570568,2.569827
10.900000,0.111134,16.432259,-0.070133,1.708747,2.570568,2.569827
11.000000,0.103678,16.603128,-0.078826,1.708770,2.570568,2.569827
11.100000,0.095402,16.774040,-0.086521,1.709603,2.570568,2.569827
11.200000,0.086408,16.945076,-0.093188,1.711241,2.570568,2.569827
11.300000,0.076800,17.116314,-0.098803,1.713648,2.570568,2.569827
11.400000,0.066683,17.287829,-0.103357,1.716762,2.570568,2.569827
11.500000,0.056164,17.459687,-0.106847,1.720496,2.570568,2.569827
11.600000,0.045349,17.631945,-0.109283,1.724745,2.570568,2.569827
11.700000,0.034342,17.804649,-0.110682,1.729389,2.570568,2.569827
11.800000,0.023246,17.977832,-0.111071,1.734300,2.570568,2.569827
11.900000,0.012160,18.151514,-0.110484,1.739344,2.570568,2.569827
12.000000,0.001180,18.325701,-0.108963,1.744388,2.570568,2.569827
12.100000,-0.009603,18.500387,-0.106555,1.749304,2.570568,2.569827
12.200000,-0.020103,18.675554,-0.103315,1.753973,2.570569,2.569827
12.300000,-0.030240,18.851170,-0.099302,1.758289,2.570569,2.569827
12.400000,-0.039940,19.027197,-0.094577,1.762160,2.570569,2.569827
12.500000,-0.049134,19.203585,-0.089206,1.765513,2.570569,2.569827
12.600000,-0.057762,19.380280,-0.083258,1.768296,2.570569,2.569827
12.700000,-0.065769,19.557224,-0.076803,1.770473,2.570569,2.569827
12.800000,-0.073108,19.734354,-0.069910,1.772032,2.570569,2.569827
12.900000,-0.079738,19.911610,-0.062650,1.772977,2.570569,2.569827
13.000000,-0.085628,20.088930,-0.055093,1.773333,2.570569,2.569827
13.100000,-0.090749,20.266258,-0.047309,1.773142,2.570569,2.569827
13.200000,-0.095084,20.443542,-0.039366,1.772458,2.570569,2.569827
13.300000,-0.098619,20.620735,-0.031329,1.771350,2.570569,2.569827
13.400000,-0.101349,20.797800,-0.023261,1.769896,2.570569,2.569827
13.500000,-0.103273,20.974706,-0.015224,1.768180,2.570569,2.569827
13.600000,-0.104397,21.151430,-0.007276,1.766290,2.570569,2.569827
13.700000,-0.104733,21.327961,0.000529,1.764317,2.570569,2.569827
13.800000,-0.104298,21.504294,0.008139,1.762350,2.570569,2.569827
13.900000,-0.103113,21.680434,0.015505,1.760473,2.570569,2.569827
14.000000,-0.101206,21.856394,0.022584,1.758767,2.570569,2.569827
14.100000,-0.098607,22.032195,0.029335,1.757301,2.570569,2.569827
14.200000,-0.095351,22.207865,0.035720,1.756138,2.570569,2.569827
14.300000,-0.091477,22.383435,0.041706,1.755328,2.570569,2.569827
14.400000,-0.087024,22.558943,0.047265,1.754910,2.570569,2.569827
14.500000,-0.082039,22.734431,0.052371,1.754910,2.570569,2.569827
14.600000,-0.076566,22.909940,0.057002,1.755342,2.570569,2.569827
14.700000,-0.070655,23.085514,0.061142,1.756208,2.570569,2.569827
14.800000,-0.064355,23.261195,0.064776,1.757496,2.570569,2.569827
14.900000,-0.057717,23.437026,0.067895,1.759186,2.570569,2.569827
15.000000,-0.050793,23.613045,0.070493,1.761244,2.570569,2.569827
15.100000,-0.043635,23.789286,0.072568,1.763631,2.570569,2.569827
15.200000,-0.036297,23.965780,0.074122,1.766297,2.570569,2.569827
15.300000,-0.028828,24.142553,0.075158,1.769187,2.570569,2.569827
15.400000,-0.021282,24.319623,0.075685,1.772245,2.570569,2.569827
15.500000,-0.013708,24.497005,0.075714,1.775407,2.570569,2.569827
15.600000,-0.006155,24.674706,0.075259,1.778611,2.570569,2.569827
15.700000,0.001328,24.852727,0.074336,1.781797,2.570569,2.569827
15.800000,0.008697,25.031063,0.072965,1.784905,2.570569,2.569827
15.900000,0.015907,25.209703,0.071167,1.787878,2.570569,2.569827
16.000000,0.022917,25.388632,0.068966,1.790666,2.570569,2.569827
16.100000,0.029687,25.567829,0.066386,1.793225,2.570569,2.569827
16.200000,0.036182,25.747268,0.063453,1.795515,2.570569,2.569827
16.300000,0.042367,25.926922,0.060197,1.797507,2.570569,2.569827
16.400000,0.048212,26.106759,0.056645,1.799178,2.570569,2.569827
16.500000,0.053687,26.286746,0.052827,1.800513,2.570569,2.569827
16.600000,0.058769,26.466850,0.048774,1.801506,2.570569,2.569827
16.700000,0.063435,26.647036,0.044515,1.802159,2.570569,2.569827
16.800000,0.067666,26.827271,0.040082,1.802481,2.570569,2.569827
16.900000,0.071447,27.007522,0.035504,1.802489,2.570569,2.569827
17.000000,0.074764,27.187759,0.030813,1.802206,2.570569,2.569827
17.100000,0.077607,27.367954,0.026038,1.801662,2.570569,2.569827
17.200000,0.079969,27.548084,0.021209,1.800891,2.570569,2.569827
17.300000,0.081848,27.728126,0.016354,1.799930,2.570569,2.569827
17.400000,0.083240,27.908065,0.011500,1.798821,2.570569,2.569827
17.500000,0.084149,28.087887,0.006676,1.797606,2.570569,2.569827
17.600000,0.084577,28.267584,0.001907,1.796329,2.570569,2.569827
17.700000,0.084533,28.447152,-0.002783,1.795036,2.570569,2.569827
17.800000,0.084024,28.626592,-0.007370,1.793767,2.570569,2.569827
17.900000,0.083063,28.805908,-0.011831,1.792565,2.570569,2.569827
18.000000,0.081663,28.985108,-0.016147,1.791467,2.570569,2.569827
18.100000,0.079839,29.164206,-0.020296,1.790509,2.570569,2.569827
18.200000,0.077610,29.343216,-0.024261,1.789721,2.570569,2.569827
18.300000,0.074993,29.522157,-0.028026,1.789130,2.570569,2.569827
18.400000,0.072012,29.701049,-0.031576,1.788757,2.570569,2.569827
18.500000,0.068686,29.879916,-0.034896,1.788618,2.570569,2.569827
18.600000,0.065040,30.058781,-0.037976,1.788724,2.570569,2.569827
18.700000,0.061099,30.237669,-0.040804,1.789080,2.570569,2.569827
18.800000,0.056888,30.416605,-0.043372,1.789686,2.570569,2.569827
18.900000,0.052434,30.595614,-0.045673,1.790536,2.570569,2.569827
19.000000,0.047763,30.774720,-0.047700,1.791620,2.570569,2.569827
19.100000,0.042903,30.953946,-0.049451,1.792923,2.570569,2.569827
19.200000,0.037882,31.133311,-0.050921,1.794426,2.570569,2.569827
19.300000,0.032728,31.312837,-0.052111,1.796106,2.570569,2.569827
19.400000,0.027469,31.492538,-0.053019,1.797938,2.570569,2.569827
19.500000,0.022133,31.672428,-0.053649,1.799893,2.570569,2.569827
19.600000,0.016748,31.852519,-0.054003,1.801941,2.570569,2.569827
19.700000,0.011342,32.032819,-0.054086,1.804051,2.570569,2.569827
19.800000,0.005940,32.213331,-0.053903,1.806191,2.570569,2.569827
19.900000,0.000570,32.394057,-0.053461,1.808330,2.570569,2.569827
20.000000,-0.004744,32.574996,-0.052767,1.810437,2.570569,2.569827
20.100000,-0.009976,32.756142,-0.051832,1.812482,2.570569,2.569827
20.200000,-0.015102,32.937489,-0.050664,1.814438,2.570569,2.569827
20.300000,-0.020101,33.119026,-0.049274,1.816278,2.570569,2.569827
20.400000,-0.024950,33.300740,-0.047674,1.817981,2.570569,2.569827
20.500000,-0.029629,33.482617,-0.045876,1.819526,2.570569,2.569827
20.600000,-0.034119,33.664639,-0.043893,1.820897,2.570569,2.569827
20.700000,-0.038402,33.846790,-0.041737,1.822082,2.570569,2.569827
20.800000,-0.042461,34.029049,-0.039424,1.823071,2.570569,2.569827
20.900000,-0.046282,34.211397,-0.036966,1.823859,2.570569,2.569827
21.000000,-0.049850,34.393814,-0.034378,1.824444,2.570569,2.569827
21.100000,-0.053154,34.576280,-0.031675,1.824829,2.570569,2.569827
21.200000,-0.056182,34.758774,-0.028871,1.825018,2.570569,2.569827
21.300000,-0.058925,34.941277,-0.025982,1.825021,2.570569,2.569827
21.400000,-0.061376,35.123772,-0.023021,1.824850,2.570569,2.569827
21.500000,-0.063527,35.306242,-0.020004,1.824518,2.570569,2.569827
21.600000,-0.065375,35.488671,-0.016945,1.824044,2.570569,2.569827
21.700000,-0.066916,35.671046,-0.013859,1.823446,2.570569,2.569827
21.800000,-0.068146,35.853357,-0.010758,1.822745,2.570569,2.569827
21.900000,-0.069067,36.035593,-0.007658,1.821963,2.570569,2.569827
22.000000,-0.069679,36.217747,-0.004572,1.821123,2.570569,2.569827
22.100000,-0.069983,36.399816,-0.001512,1.820247,2.570569,2.569827
22.200000,-0.069982,36.581796,0.001509,1.819361,2.570569,2.569827
22.300000,-0.069682,36.763689,0.004478,1.818486,2.570569,2.569827
22.400000,-0.069089,36.945495,0.007385,1.817644,2.570569,2.569827
22.500000,-0.068208,37.127219,0.010219,1.816857,2.570569,2.569827
22.600000,-0.067048,37.308868,0.012968,1.816144,2.570569,2.569827
22.700000,-0.065617,37.490451,0.015623,1.815523,2.570569,2.569827
22.800000,-0.063927,37.671977,0.018175,1.815010,2.570569,2.569827
22.900000,-0.061986,37.853457,0.020615,1.814620,2.570569,2.569827
23.000000,-0.059808,38.034905,0.022935,1.814362,2.570569,2.569827
23.100000,-0.057404,38.216334,0.025128,1.814247,2.570569,2.569827
23.200000,-0.054787,38.397759,0.027187,1.814280,2.570569,2.569827
23.300000,-0.051971,38.579195,0.029107,1.814465,2.570569,2.569827
23.400000,-0.048970,38.760657,0.030882,1.814804,2.570569,2.569827
23.500000,-0.045799,38.942161,0.032507,1.815295,2.570569,2.569827
23.600000,-0.042474,39.123721,0.033980,1.815934,2.570569,2.569827
23.700000,-0.039009,39.305353,0.035296,1.816716,2.570569,2.569827
23.800000,-0.035420,39.487069,0.036454,1.817631,2.570569,2.569827
23.900000,-0.031723,39.668883,0.037451,1.818670,2.570569,2.569827
24.000000,-0.027935,39.850807,0.038287,1.819820,2.570569,2.569827
24.100000,-0.024071,40.032851,0.038961,1.821068,2.570569,2.569827
24.200000,-0.020148,40.215023,0.039473,1.822399,2.570569,2.569827
24.300000,-0.016182,40.397332,0.039825,1.823796,2.570569,2.569827
24.400000,-0.012189,40.579784,0.040017,1.825243,2.570569,2.569827
24.500000,-0.008184,40.762382,0.040052,1.826724,2.570569,2.569827
24.600000,-0.004184,40.945129,0.039933,1.828219,2.570569,2.569827
24.700000,-0.000203,41.128026,0.039662,1.829713,2.570569,2.569827
24.800000,0.003744,41.311071,0.039244,1.831188,2.570569,2.569827
24.900000,0.007641,41.494262,0.038682,1.832627,2.570569,2.569827
25.000000,0.011476,41.677595,0.037982,1.834016,2.570569,2.569827
25.100000,0.015233,41.861063,0.037147,1.835339,2.570569,2.569827
25.200000,0.018901,42.044660,0.036185,1.836583,2.570569,2.569827
25.300000,0.022466,42.228377,0.035100,1.837736,2.570569,2.569827
25.400000,0.025917,42.412204,0.033900,1.838789,2.570569,2.569827
25.500000,0.029242,42.596131,0.032589,1.839731,2.570569,2.569827
25.600000,0.032431,42.780146,0.031175,1.840556,2.570569,2.569827
25.700000,0.035474,42.964238,0.029666,1.841260,2.570569,2.569827
25.800000,0.038362,43.148394,0.028067,1.841838,2.570569,2.569827
25.900000,0.041085,43.332601,0.026388,1.842289,2.570569,2.569827
26.000000,0.043637,43.516848,0.024634,1.842614,2.570569,2.569827
26.100000,0.046010,43.701120,0.022814,1.842815,2.570569,2.569827
26.200000,0.048198,43.885407,0.020934,1.842895,2.570569,2.569827
26.300000,0.050195,44.069695,0.019004,1.842860,2.570569,2.569827
26.400000,0.051997,44.253975,0.017031,1.842716,2.570569,2.569827
26.500000,0.053600,44.438235,0.015022,1.842474,2.570569,2.569827
26.600000,0.055000,44.622467,0.012985,1.842140,2.570569,2.569827
26.700000,0.056196,44.806661,0.010927,1.841728,2.570569,2.569827
26.800000,0.057185,44.990810,0.008857,1.841247,2.570569,2.569827
26.900000,0.057967,45.174908,0.006781,1.840710,2.570569,2.569827
27.000000,0.058541,45.358950,0.004706,1.840130,2.570569,2.569827
27.100000,0.058909,45.542933,0.002641,1.839519,2.570569,2.569827
27.200000,0.059070,45.726854,0.000592,1.838892,2.570569,2.569827
27.300000,0.059028,45.910711,-0.001435,1.838261,2.570569,2.569827
27.400000,0.058784,46.094506,-0.003433,1.837639,2.570569,2.569827
27.500000,0.058342,46.278240,-0.005396,1.837039,2.570569,2.569827
27.600000,0.057706,46.461915,-0.007317,1.836472,2.570569,2.569827
27.700000,0.056881,46.645536,-0.009190,1.835951,2.570569,2.569827
27.800000,0.055870,46.829107,-0.011011,1.835485,2.570569,2.569827
27.900000,0.054680,47.012635,-0.012774,1.835085,2.570569,2.569827
28.000000,0.053317,47.196126,-0.014474,1.834758,2.570569,2.569827
28.100000,0.051788,47.379589,-0.016107,1.834512,2.570569,2.569827
28.200000,0.050098,47.563032,-0.017667,1.834353,2.570569,2.569827
28.300000,0.048257,47.746463,-0.019151,1.834287,2.570569,2.569827
28.400000,0.046271,47.929892,-0.020556,1.834316,2.570569,2.569827
28.500000,0.044149,48.113329,-0.021877,1.834443,2.570569,2.569827
28.600000,0.041898,48.296784,-0.023112,1.834669,2.570569,2.569827
28.700000,0.039529,48.480266,-0.024258,1.834993,2.570569,2.569827
28.800000,0.037050,48.663786,-0.025313,1.835414,2.570569,2.569827
28.900000,0.034470,48.847352,-0.026275,1.835928,2.570569,2.569827
29.000000,0.031798,49.030975,-0.027141,1.836532,2.570569,2.569827
29.100000,0.029044,49.214662,-0.027911,1.837220,2.570569,2.569827
29.200000,0.026219,49.398421,-0.028584,1.837987,2.570569,2.569827
29.300000,0.023331,49.582261,-0.029159,1.838824,2.570569,2.569827
29.400000,0.020390,49.766188,-0.029634,1.839725,2.570569,2.569827
29.500000,0.017407,49.950208,-0.030012,1.840680,2.570569,2.569827
29.600000,0.014391,50.134326,-0.030290,1.841680,2.570569,2.569827
29.700000,0.011352,50.318545,-0.030471,1.842716,2.570569,2.569827
29.800000,0.008300,50.502870,-0.030555,1.843778,2.570569,2.569827
29.900000,0.005245,50.687301,-0.030544,1.844855,2.570569,2.569827
30.000000,0.002195,50.871841,-0.030437,1.845938,2.570569,2.569827
30.100000,-0.000840,51.056489,-0.030238,1.847017,2.570569,2.569827
30.200000,-0.003850,51.241244,-0.029949,1.848081,2.570569,2.569827
30.300000,-0.006827,51.426104,-0.029570,1.849121,2.570569,2.569827
30.400000,-0.009761,51.611067,-0.029106,1.850128,2.570569,2.569827
